Cycle,omega,b,TemperatureAvg,InternalResistance,ChargeTime,dQdV_max,dQdV_min,dQdV_var,RUL,SOH
1,0.010223311,0.010306131,34.8646865,0.015467586,11.05615833,-0.130836779,-6.573914142,3.538473783,1637,0.964138545
2,0.010234338,0.010306267,34.84655146,0.015460762,11.05568083,-0.135042833,-6.591191656,3.544841641,1636,0.964553636
3,0.010238144,0.010296052,34.83492182,0.015450312,11.050975,-0.13648091,-6.578059436,3.544063501,1635,0.965073364
4,0.010234888,0.010280813,34.83225588,0.015439206,11.04822708,-0.137663672,-6.578762295,3.544647342,1634,0.965583545
5,0.010233619,0.010269154,34.82241112,0.015428584,11.04680833,-0.137603439,-6.594190636,3.551645594,1633,0.965943636
6,0.010230903,0.010257846,34.81055693,0.015420292,11.04549833,-0.138418725,-6.592509085,3.55021813,1632,0.966377455
7,0.010229083,0.010248154,34.80097533,0.015413482,11.04489048,-0.138985958,-6.598407545,3.553008012,1631,0.966455
8,0.010225485,0.010237394,34.79571807,0.015406463,11.04657792,-0.139483316,-6.59992977,3.554251364,1630,0.96678
9,0.010221789,0.010227084,34.79250594,0.015400083,11.04586667,-0.139781382,-6.592829091,3.551973375,1629,0.966791091
10,0.010218112,0.010217761,34.7873482,0.015393262,11.04532917,-0.139852298,-6.590498236,3.552297994,1628,0.966909
11,0.010214529,0.010200723,34.77052715,0.015379848,11.043663,-0.140910991,-6.592280479,3.554097566,1627,0.966988818
12,0.010208308,0.010183214,34.76303486,0.015367998,11.04208783,-0.140592025,-6.58843522,3.552939895,1626,0.967058636
13,0.010200939,0.010167819,34.76025984,0.015359055,11.04209133,-0.140897358,-6.594523577,3.553561944,1625,0.967164818
14,0.010195,0.010155249,34.75162228,0.015350906,11.04194767,-0.140932335,-6.59181505,3.553735803,1624,0.966108636
15,0.010189128,0.010144298,34.74900574,0.015344689,11.041784,-0.141314745,-6.578982806,3.549530791,1623,0.967056545
16,0.010183828,0.010133533,34.75368543,0.015339426,11.04201333,-0.141554464,-6.584081742,3.550464858,1622,0.967362182
17,0.010179018,0.010125062,34.76019829,0.015331639,11.041944,-0.141453834,-6.580084719,3.548134538,1621,0.967394364
18,0.010175773,0.010119126,34.76835694,0.015325774,11.04015517,-0.14132768,-6.576364298,3.545590985,1620,0.967544636
19,0.010173079,0.010114377,34.77351906,0.015321904,11.04019417,-0.14138396,-6.575097504,3.545820084,1619,0.967484727
20,0.010169795,0.010109632,34.78032084,0.015319703,11.04024733,-0.14176936,-6.571900599,3.543811412,1618,0.967467909
21,0.010166374,0.010104535,34.79442235,0.015316069,11.04025417,-0.141841165,-6.567262018,3.551489869,1617,0.967520182
22,0.010162468,0.010099096,34.80500903,0.015311707,11.04037983,-0.142582216,-6.564134336,3.552354332,1616,0.967486091
23,0.010159923,0.010095696,34.81282607,0.015306973,11.04026367,-0.14325906,-6.558296729,3.535904359,1615,0.967451909
24,0.010158037,0.010094087,34.83192584,0.015304339,11.04032917,-0.143669225,-6.55564225,3.533800276,1614,0.967451727
25,0.010153957,0.010090928,34.84428624,0.015302608,11.040378,-0.143983882,-6.551023518,3.531412718,1613,0.967486455
26,0.01014897,0.010089326,34.8449546,0.015303085,11.04023917,-0.143676906,-6.53805633,3.528107023,1612,0.967386
27,0.010144678,0.010088542,34.83738342,0.015306535,11.04021467,-0.143760608,-6.537415773,3.525458852,1611,0.967441909
28,0.010140653,0.010087889,34.82578051,0.015310317,11.0401995,-0.143765028,-6.533788593,3.523709551,1610,0.967476727
29,0.01013705,0.010087314,34.82002833,0.015312187,11.04017333,-0.143825878,-6.540218264,3.523785721,1609,0.967581727
30,0.010136511,0.010089635,34.81959921,0.015313191,11.03993567,-0.143760101,-6.53852641,3.522410666,1608,0.967537364
31,0.010135593,0.010091834,34.82124753,0.015312657,11.04004133,-0.144643215,-6.534780391,3.510724349,1607,0.967516
32,0.010135222,0.010094028,34.82299705,0.015314143,11.0398785,-0.144599563,-6.534306711,3.508765859,1606,0.967510727
33,0.010134506,0.01009493,34.82843153,0.015313532,11.0399725,-0.143918815,-6.532370142,3.522984589,1605,0.967485
34,0.01013452,0.010096292,34.82928261,0.015313589,11.04011733,-0.143848072,-6.533234291,3.524009886,1604,0.967539909
35,0.010136328,0.010099827,34.83464556,0.015311477,11.04019233,-0.143944296,-6.542919276,3.526446848,1603,0.967558273
36,0.0101382,0.010102173,34.84648024,0.015306943,11.04031567,-0.14467548,-6.545642818,3.526708626,1602,0.967427818
37,0.010137819,0.010101755,34.86425963,0.015303021,11.0402595,-0.144804361,-6.529025386,3.5233061,1601,0.967345
38,0.010138246,0.010102913,34.88247397,0.015298334,11.04034333,-0.144952863,-6.523957106,3.52284826,1600,0.967468091
39,0.010136865,0.01010396,34.89416652,0.015296047,11.04036633,-0.144863256,-6.517236165,3.520258693,1599,0.967350909
40,0.010132323,0.010103298,34.89321864,0.015294677,11.0404975,-0.144708751,-6.512854956,3.516702689,1598,0.967283455
41,0.010127193,0.010102618,34.88464492,0.015297422,11.04040567,-0.143802731,-6.512738733,3.514023986,1597,0.967223818
42,0.010122804,0.010103044,34.8809786,0.015298708,11.04041683,-0.144037672,-6.517462546,3.512117683,1596,0.967246273
43,0.0101176,0.010103319,34.87146398,0.015301227,11.0402755,-0.144066351,-6.510656301,3.507281108,1595,0.967171545
44,0.010111015,0.010101416,34.86339517,0.015302484,11.04023083,-0.143883717,-6.509283428,3.502943343,1594,0.967216182
45,0.010105577,0.010101014,34.8562158,0.015305217,11.0399205,-0.143460153,-6.5019683,3.498080545,1593,0.967289182
46,0.010101628,0.010102459,34.85080452,0.015308175,11.03972117,-0.142569709,-6.49170711,3.493633676,1592,0.967197545
47,0.010099815,0.010105524,34.84848465,0.0153101,11.03982,-0.142447375,-6.497545746,3.49454776,1591,0.967203455
48,0.010097111,0.010106544,34.85120938,0.015311791,11.03981017,-0.142391011,-6.502043019,3.493277452,1590,0.967156545
49,0.010096914,0.010108843,34.85839363,0.015309742,11.03970333,-0.14243394,-6.506504342,3.493463123,1589,0.967283545
50,0.010096828,0.010109574,34.87797739,0.01530726,11.0396255,-0.142495021,-6.503699801,3.493943429,1588,0.967233818
51,0.010099021,0.010112503,34.90341574,0.015304457,11.03961383,-0.142929339,-6.504508514,3.496584932,1587,0.967285091
52,0.010102274,0.010116057,34.92621498,0.015300482,11.0395685,-0.142662778,-6.497353156,3.496093001,1586,0.967300455
53,0.010105946,0.010119747,34.9528067,0.015295593,11.03953567,-0.14281731,-6.501811863,3.499701768,1585,0.967209636
54,0.010109331,0.010124008,34.97796711,0.015289788,11.0393775,-0.142900142,-6.500083817,3.500209153,1584,0.967341545
55,0.010111716,0.01012564,35.00192507,0.015286319,11.03946833,-0.142926916,-6.503472866,3.502883509,1583,0.967348364
56,0.010112717,0.010126383,35.03068883,0.015280664,11.0395095,-0.143274862,-6.506112789,3.504641551,1582,0.966948455
57,0.010114116,0.010128533,35.05344092,0.015275974,11.03953367,-0.143476141,-6.508400908,3.508775317,1581,0.967152455
58,0.010115062,0.01013003,35.07518542,0.015271454,11.03947017,-0.143749622,-6.507531346,3.509596771,1580,0.967218182
59,0.010114663,0.010131317,35.09872579,0.015269355,11.03950583,-0.14404847,-6.499155401,3.50905389,1579,0.967202818
60,0.010114977,0.010134946,35.11437242,0.015268148,11.03951917,-0.143722508,-6.502883646,3.510695074,1578,0.967128273
61,0.010113047,0.010135834,35.12631284,0.015267011,11.03976117,-0.143143896,-6.500153201,3.508674152,1577,0.966997455
62,0.010109768,0.01013643,35.12984428,0.015266844,11.03989933,-0.143333983,-6.49839971,3.505933201,1576,0.967056273
63,0.010106487,0.010137745,35.13260874,0.015268286,11.03986867,-0.143271221,-6.495018567,3.503396225,1575,0.966977091
64,0.010102861,0.01013831,35.13051742,0.015271664,11.039823,-0.142636658,-6.523319859,3.508196821,1574,0.966983273
65,0.01009903,0.01013943,35.12607085,0.015272639,11.04009533,-0.142848868,-6.512931144,3.50468391,1573,0.966936909
66,0.010095589,0.010141182,35.11502002,0.015275858,11.04006117,-0.143011855,-6.649731489,3.5351291,1572,0.966988
67,0.010089688,0.010140728,35.10621572,0.015279686,11.0400755,-0.143475555,-6.645143894,3.52855288,1571,0.966850818
68,0.010084853,0.010142986,35.08793774,0.015282966,11.0401435,-0.143653599,-6.639065502,3.525135536,1570,0.966805909
69,0.010080264,0.010145237,35.06658087,0.015287697,11.040256,-0.143182878,-6.647776905,3.521344114,1569,0.966705727
70,0.010075232,0.010145988,35.04666755,0.015292174,11.0404375,-0.143641578,-6.644051402,3.516701591,1568,0.966603
71,0.010068106,0.010145937,35.02258121,0.015296083,11.0402095,-0.143700563,-6.646646672,3.51272796,1567,0.966409
72,0.010063108,0.010148326,35.0016509,0.015301107,11.04187583,-0.143434,-6.650396519,3.511730796,1566,0.966593818
73,0.010057253,0.010148931,34.9835509,0.015305582,11.04204967,-0.143152427,-6.653724078,3.507354671,1565,0.966609818
74,0.010054645,0.010153488,34.96523188,0.015309765,11.04225333,-0.143466683,-6.622183898,3.496986932,1564,0.966599636
75,0.010053448,0.010159791,34.95351054,0.015313212,11.04193617,-0.144042331,-6.633409427,3.497749788,1563,0.966578273
76,0.010050067,0.01016241,34.94075272,0.015316651,11.04199917,-0.143423922,-6.498419947,3.461581157,1562,0.966472909
77,0.010050161,0.010167676,34.93762376,0.015319118,11.04194867,-0.142522738,-6.498422746,3.459707442,1561,0.966510545
78,0.010049292,0.010169698,34.96384255,0.01532053,11.04180233,-0.141940148,-6.496336586,3.457781108,1560,0.966531545
79,0.010047063,0.010172892,34.96283527,0.015320888,11.041703,-0.141946154,-6.490937223,3.447000643,1559,0.966465545
80,0.010044603,0.010176078,34.95677238,0.015322094,11.04162933,-0.14223051,-6.492424861,3.444589752,1558,0.965371364
81,0.010046231,0.010182096,34.95727331,0.015323342,11.04155217,-0.14298746,-6.493535493,3.443667331,1557,0.966468273
82,0.01004657,0.010185241,34.96317467,0.015322965,11.03972367,-0.142702793,-6.485775898,3.441928921,1556,0.966473727
83,0.010048596,0.010189793,34.97070403,0.01532264,11.03953433,-0.143139927,-6.477183266,3.441441041,1555,0.966326364
84,0.010048991,0.01019233,34.98186898,0.015320949,11.039549,-0.143331747,-6.479940814,3.443792199,1554,0.966452818
85,0.010046542,0.010191369,34.98883754,0.015319019,11.03975383,-0.142722039,-6.464797663,3.438168578,1553,0.966363909
86,0.010047297,0.010195054,34.99873301,0.015318066,11.0398915,-0.142698803,-6.460844024,3.438428012,1552,0.966357091
87,0.010046445,0.010196815,35.00299635,0.015317516,11.03979217,-0.143137643,-6.464765499,3.439438243,1551,0.966349364
88,0.010047151,0.010204484,34.99760001,0.015316929,11.03973883,-0.143372791,-6.472601326,3.471522333,1550,0.965308455
89,0.010052047,0.010208504,35.01517447,0.015314182,11.0397645,-0.143346979,-6.469260284,3.499583128,1549,0.966470818
90,0.010057269,0.010212196,35.05459915,0.015308069,11.03814583,-0.143353699,-6.470733558,3.503625261,1548,0.966409455
91,0.010059168,0.010212456,35.09273985,0.015301292,11.038084,-0.142917747,-6.461209361,3.505623446,1547,0.966338455
92,0.010059372,0.010213167,35.12022082,0.015295983,11.03826633,-0.143250609,-6.458428654,3.50584215,1546,0.966388273
93,0.010059074,0.010215248,35.13331221,0.015293756,11.03838,-0.143303248,-6.465903982,3.506913039,1545,0.966280818
94,0.010056488,0.010215948,35.13846885,0.015291554,11.03848467,-0.143925908,-6.456931577,3.50419989,1544,0.966198727
95,0.0100554,0.010219298,35.14189116,0.01529224,11.03871533,-0.143777832,-6.502816067,3.534276352,1543,0.966116364
96,0.010053635,0.010222084,35.14070507,0.015292754,11.038461,-0.144150327,-6.501930919,3.533271692,1542,0.965966091
97,0.010049905,0.010223523,35.13898053,0.015293111,11.04013667,-0.143743859,-6.497495178,3.528772089,1541,0.964943364
98,0.010045142,0.01022158,35.12036139,0.015296538,11.04034233,-0.143701822,-6.488451151,3.493383145,1540,0.965876455
99,0.01003751,0.010221771,35.10351895,0.015300784,11.040466,-0.143973716,-6.480999456,3.472558332,1539,0.965939091
100,0.010030887,0.010223219,35.07494568,0.015307584,11.04206417,-0.143376123,-6.477616594,3.467369526,1538,0.965961727
101,0.010026752,0.010228351,35.04072312,0.015314662,11.042241,-0.144465448,-6.476463066,3.462204926,1537,0.965913455
102,0.010023355,0.010232759,35.01802625,0.015321192,11.04221983,-0.144441288,-6.483357344,3.459212063,1536,0.965813364
103,0.01002024,0.010236266,35.00244345,0.015325305,11.04220167,-0.143993985,-6.475672122,3.455689479,1535,0.965819
104,0.010019548,0.010241739,34.99377327,0.015330268,11.042014,-0.143263275,-6.484891341,3.455454234,1534,0.965818091
105,0.010016654,0.0102437,34.98660652,0.015332152,11.04171217,-0.143209728,-6.440989959,3.423430814,1533,0.965795091
106,0.010015123,0.010246964,34.97931135,0.015333848,11.04182733,-0.143055478,-6.441572886,3.421065868,1532,0.965778182
107,0.010016166,0.01025343,34.97039318,0.015337125,11.04019833,-0.143529509,-6.436090046,3.419018178,1531,0.965726364
108,0.010015973,0.010257639,34.96603485,0.015337652,11.04000067,-0.143581276,-6.435624045,3.417704473,1530,0.965731818
109,0.010016944,0.010263121,34.96545148,0.015340167,11.03989733,-0.143459213,-6.43789199,3.41522661,1529,0.965783273
110,0.010017749,0.010267757,34.97366356,0.015341387,11.03985667,-0.143577073,-6.431104656,3.413001626,1528,0.965747636
111,0.010019511,0.010272426,34.99298726,0.015341752,11.03994483,-0.141765297,-6.431056397,3.413061671,1527,0.965808545
112,0.010021543,0.010276308,35.00866326,0.015341978,11.03980667,-0.142049206,-6.431173495,3.414577562,1526,0.965817273
113,0.010024036,0.010279798,35.03491732,0.015338685,11.03986817,-0.142284149,-6.431306294,3.415383018,1525,0.965873364
114,0.010025663,0.01028151,35.06104729,0.01533626,11.040026,-0.142225737,-6.428479765,3.415448709,1524,0.965820091
115,0.010030282,0.010286626,35.09257145,0.015334003,11.04028867,-0.142522525,-6.434727413,3.4177546,1523,0.965795909
116,0.010034295,0.010290175,35.12980963,0.015328335,11.04037083,-0.142628454,-6.43834927,3.421261057,1522,0.965730455
117,0.010037431,0.010291488,35.16909582,0.015322687,11.0404275,-0.142605913,-6.441524787,3.424586809,1521,0.965778727
118,0.010042082,0.010294478,35.20765698,0.01531572,11.04052583,-0.142826786,-6.438717463,3.427249275,1520,0.965900182
119,0.010045521,0.010295509,35.24522703,0.015308016,11.04052733,-0.142774705,-6.459493821,3.434420323,1519,0.965855273
120,0.010048197,0.010298609,35.2779706,0.015301414,11.04036667,-0.1428304,-6.465142984,3.43856461,1518,0.964743636
121,0.010052237,0.010299529,35.30970583,0.015293103,11.0400495,-0.143689049,-6.469928506,3.44177849,1517,0.965873727
122,0.010056215,0.010301433,35.34790129,0.015283972,11.04025917,-0.144034236,-6.463772603,3.442895711,1516,0.965894636
123,0.010059344,0.010303262,35.37911286,0.015278536,11.0402945,-0.144148572,-6.460415406,3.44377946,1515,0.965911727
124,0.01006202,0.010305356,35.41352041,0.015272757,11.04030517,-0.144576696,-6.455419343,3.444124528,1514,0.965817818
125,0.010063829,0.010306356,35.44475662,0.015267533,11.04016817,-0.144807181,-6.44866726,3.445097881,1513,0.965845727
126,0.010065665,0.010308369,35.47008504,0.015265853,11.03994267,-0.145293741,-6.441393599,3.445158658,1512,0.96575
127,0.010065746,0.010309709,35.49082217,0.015261088,11.03998817,-0.145608645,-6.440705055,3.446054101,1511,0.965516545
128,0.010065169,0.010311513,35.5097506,0.01525971,11.04002233,-0.14554236,-6.440477336,3.447562598,1510,0.965654545
129,0.010063596,0.010313078,35.53149543,0.015259168,11.040118,-0.145725026,-6.415110513,3.459873445,1509,0.965565
130,0.010063522,0.010314998,35.53877357,0.015259778,11.04036967,-0.146921921,-6.413661193,3.458455222,1508,0.965574545
131,0.010058701,0.010315484,35.53590217,0.015262094,11.04055967,-0.146893146,-6.405442576,3.455368821,1507,0.965260273
132,0.01005438,0.010317764,35.5182127,0.015266165,11.04049533,-0.146215687,-6.399689718,3.450851018,1506,0.965443273
133,0.01004941,0.010320657,35.49120913,0.015270936,11.040411,-0.145924305,-6.401294398,3.449068107,1505,0.965440364
134,0.010044747,0.010324643,35.45741878,0.015276895,11.04039867,-0.145837672,-6.399599452,3.444747301,1504,0.965307818
135,0.010039267,0.010327851,35.41887177,0.01528371,11.0403755,-0.145448347,-6.397490952,3.440032411,1503,0.965347545
136,0.010033572,0.010330742,35.38211008,0.015289072,11.04066867,-0.144744562,-6.400204052,3.436427858,1502,0.965255818
137,0.010028113,0.010333106,35.35015668,0.015295229,11.0405675,-0.144191404,-6.404978959,3.433100576,1501,0.965176182
138,0.010023661,0.010337269,35.31411643,0.015303819,11.04043967,-0.143982195,-6.436474783,3.432516443,1500,0.965055
139,0.010019211,0.010341051,35.27548966,0.015309563,11.04027733,-0.143858704,-6.436275098,3.410230065,1499,0.965042909
140,0.010014388,0.010343189,35.24618637,0.015314174,11.04023317,-0.142559074,-6.448883382,3.408995845,1498,0.965028091
141,0.010012506,0.010349316,35.22416319,0.015319408,11.04042017,-0.142239525,-6.449185593,3.414325925,1497,0.964978909
142,0.010008517,0.010351207,35.20487883,0.015323188,11.04051333,-0.142373973,-6.458584948,3.413825707,1496,0.964820091
143,0.010003369,0.010352767,35.1939572,0.015328238,11.040277,-0.142417548,-6.454641672,3.409365755,1495,0.964847727
144,0.010000741,0.0103554,35.18617349,0.01533243,11.04031067,-0.142578116,-6.456767537,3.407995912,1494,0.965019545
145,0.010000361,0.01035852,35.18399111,0.015334468,11.04031967,-0.143266002,-6.460473862,3.408324642,1493,0.965025818
146,0.010000919,0.010360825,35.19457743,0.015333574,11.04035467,-0.143704512,-6.451877952,3.406826027,1492,0.964844727
147,0.010003109,0.01036387,35.21037431,0.015331085,11.04033467,-0.143820706,-6.446386867,3.407708413,1491,0.965053636
148,0.010005489,0.010365367,35.23719829,0.015324638,11.04051033,-0.143025258,-6.413808501,3.403066581,1490,0.965129182
149,0.010008929,0.010367745,35.26830889,0.01531921,11.04074067,-0.144075594,-6.416867252,3.405890919,1489,0.965216364
150,0.010012249,0.010370552,35.2954772,0.015314018,11.04065517,-0.14590386,-6.400520745,3.404819159,1488,0.965123909
151,0.010015209,0.010372159,35.3222126,0.015307816,11.04060217,-0.145984172,-6.401929577,3.399775361,1487,0.965121364
152,0.010018892,0.010378013,35.36006584,0.015303175,11.040634,-0.145581324,-6.39291242,3.40012596,1486,0.963940909
153,0.010025287,0.010377903,35.39700371,0.015295489,11.04071667,-0.145851646,-6.398507957,3.405156553,1485,0.965064182
154,0.010030477,0.010379707,35.43485871,0.015285393,11.04061217,-0.14556999,-6.393665424,3.408187936,1484,0.965077455
155,0.010033802,0.010381974,35.47041821,0.015278092,11.04062917,-0.145052935,-6.386078166,3.407618742,1483,0.965165545
156,0.010035836,0.010385202,35.48966448,0.015275019,11.04048883,-0.144911575,-6.392582153,3.412153549,1482,0.965085
157,0.010037139,0.010389263,35.4983496,0.015274986,11.040618,-0.144849036,-6.389861838,3.410941945,1481,0.965048818
158,0.010036732,0.010392351,35.49919472,0.0152761,11.04055983,-0.145530283,-6.390544387,3.411203557,1480,0.964963727
159,0.010036899,0.010396276,35.49562092,0.015278061,11.04038067,-0.144504839,-6.387574184,3.410672264,1479,0.964909364
160,0.010035771,0.010399036,35.49030734,0.015279875,11.04047917,-0.142923076,-6.568558776,3.450370528,1478,0.964903545
161,0.010033305,0.010401205,35.47998409,0.015282403,11.04043983,-0.142925595,-6.571173533,3.447352078,1477,0.964764818
162,0.010031069,0.010401548,35.45728809,0.015285512,11.04039667,-0.142881787,-6.571366549,3.445908077,1476,0.964670545
163,0.010026943,0.010407345,35.42945692,0.015289367,11.04039083,-0.142527549,-6.566345711,3.441271869,1475,0.964602636
164,0.010021789,0.010410162,35.40112543,0.015295683,11.04038517,-0.142181452,-6.564984974,3.437219068,1474,0.964574818
165,0.0100172,0.010414089,35.36887627,0.015303101,11.04033417,-0.1419451,-6.565808967,3.433509669,1473,0.964475091
166,0.010012148,0.01041605,35.33973843,0.015309198,11.040271,-0.141872318,-6.570865977,3.428057145,1472,0.964462727
167,0.0100068,0.010417732,35.31304591,0.015314369,11.0401405,-0.141755078,-6.571519049,3.423304623,1471,0.964327727
168,0.010002016,0.010420088,35.29043561,0.015320135,11.040167,-0.141808682,-6.568753874,3.419251808,1470,0.964468545
169,0.009996857,0.010422554,35.26250465,0.015325782,11.04017733,-0.141988036,-6.572919728,3.41615895,1469,0.964363364
170,0.009993259,0.010426766,35.23715179,0.015331444,11.04012967,-0.142072159,-6.389678378,3.385226457,1468,0.964263818
