Cycle,omega,b,TemperatureAvg,InternalResistance,ChargeTime,dQdV_max,dQdV_min,dQdV_var,RUL,SOH
1,0.010462212,0.010513085,32.61514036,0.015778109,11.037985,-0.136214508,-6.890425427,3.675801175,1800,0.971638
2,0.010456642,0.010490197,32.59928187,0.01576006,11.03885167,-0.136876661,-6.891075196,3.68516441,1799,0.972316818
3,0.010461883,0.010480609,32.5959609,0.015743922,11.03836111,-0.13713321,-6.85938149,3.683374956,1798,0.972831182
4,0.010458985,0.010466499,32.59019443,0.01573238,11.03808208,-0.136315895,-6.850041545,3.681079225,1797,0.973110727
5,0.010458419,0.010456271,32.57952957,0.015721711,11.03769767,-0.136513403,-6.845564972,3.682332554,1796,0.973289364
6,0.010458053,0.010445348,32.57402985,0.015713895,11.03770583,-0.137220303,-6.8461307,3.685819754,1795,0.973556
7,0.01045983,0.010439109,32.56969945,0.015708536,11.03779571,-0.137032453,-6.84319676,3.687492169,1794,0.973777273
8,0.010457156,0.010428233,32.57043643,0.015703557,11.03798354,-0.137339057,-6.838483718,3.686990599,1793,0.973647909
9,0.010453845,0.01041803,32.56859666,0.015697242,11.03797278,-0.137899229,-6.830319853,3.684750412,1792,0.973814818
10,0.010448099,0.010406023,32.5640023,0.015693104,11.038025,-0.138158897,-6.827863778,3.682784559,1791,0.973937091
11,0.010440679,0.010383575,32.55959743,0.015679308,11.0380695,-0.138652266,-6.816176232,3.681412716,1790,0.973849364
12,0.010433923,0.010365965,32.55960518,0.015669228,11.03975067,-0.138967693,-6.799504352,3.677027739,1789,0.973923455
13,0.010423946,0.010347611,32.55561098,0.015662496,11.0397335,-0.13937432,-6.799195508,3.675749632,1788,0.973985636
14,0.010417154,0.010333302,32.55613046,0.015656436,11.03980367,-0.140147918,-6.791085961,3.675347086,1787,0.974077091
15,0.010409773,0.010318417,32.56229644,0.015650273,11.03994983,-0.141166186,-6.783165222,3.673206802,1786,0.974272909
16,0.010402839,0.01030668,32.57219649,0.01564314,11.03985033,-0.141526677,-6.772702679,3.668701953,1785,0.974240455
17,0.010393822,0.010292872,32.58326291,0.015636037,11.03963367,-0.142144373,-6.763379131,3.664797174,1784,0.974225
18,0.010387582,0.010283472,32.59152325,0.015628922,11.03946983,-0.141979136,-6.754892233,3.661969316,1783,0.974328818
19,0.010381395,0.010276471,32.59701836,0.015624016,11.0392455,-0.141996769,-6.758910548,3.661313332,1782,0.974243091
20,0.010379121,0.010272999,32.61188814,0.015618841,11.03903083,-0.141618928,-6.748592315,3.659228888,1781,0.974228455
21,0.010376949,0.010269542,32.62520393,0.01561383,11.04044433,-0.141764023,-6.745712541,3.698454105,1780,0.974135182
22,0.01037479,0.010266074,32.63523399,0.01560905,11.03839,-0.141531788,-6.743720436,3.697481753,1779,0.974163364
23,0.010373204,0.010263749,32.65319772,0.015603905,11.03819633,-0.141699782,-6.742849761,3.695955346,1778,0.974285818
24,0.010369576,0.010261967,32.65943193,0.015601697,11.03836767,-0.142026295,-6.74052284,3.69250522,1777,0.974278636
25,0.010365358,0.010261422,32.65735739,0.015601956,11.03848817,-0.141294888,-6.736842001,3.689877546,1776,0.974196909
26,0.010360173,0.010259482,32.64860663,0.015603896,11.03847317,-0.141049837,-6.736323977,3.691046918,1775,0.974531909
27,0.010356412,0.01025927,32.63821349,0.015606618,11.03860367,-0.141181224,-6.73711863,3.69653956,1774,0.973351
28,0.010354079,0.010259998,32.63079695,0.015608025,11.0386505,-0.142109202,-6.737557039,3.6959313,1773,0.973538091
29,0.010352287,0.010259308,32.63272118,0.015608397,11.03868333,-0.141887339,-6.722635289,3.695809325,1772,0.974555
30,0.010350117,0.010259509,32.63231522,0.015607655,11.03864533,-0.142326053,-6.72589255,3.695914271,1771,0.974556273
31,0.010346635,0.010258676,32.63149648,0.015607999,11.03691033,-0.142298962,-6.732012979,3.655580886,1770,0.974495
32,0.010346537,0.010260375,32.63620896,0.015607878,11.03726583,-0.142706745,-6.822543615,3.68942144,1769,0.974638182
33,0.010344858,0.010260389,32.63709628,0.015606414,11.03735733,-0.142515883,-6.814300671,3.687280921,1768,0.974569545
34,0.010344983,0.010261151,32.64705681,0.015603779,11.03727483,-0.142098333,-6.813057229,3.68645555,1767,0.974513091
35,0.010344177,0.010261586,32.66347491,0.015600436,11.03735867,-0.142264759,-6.812332783,3.685631492,1766,0.974487455
36,0.010343788,0.010263014,32.67952978,0.015597622,11.0372645,-0.142056941,-6.811867326,3.682520326,1765,0.974352182
37,0.01034149,0.010263038,32.69336193,0.015593809,11.0371645,-0.141977258,-6.805197179,3.658439193,1764,0.973276545
38,0.010335898,0.010261234,32.69654782,0.015594577,11.037193,-0.141574793,-6.798702436,3.652504709,1763,0.973338727
39,0.010329172,0.010258828,32.6914874,0.015596765,11.0373455,-0.141345828,-6.810366851,3.65527582,1762,0.974524
40,0.010322385,0.010256684,32.68893442,0.015598602,11.03747733,-0.141283556,-6.832899124,3.663815284,1761,0.974510818
41,0.010317262,0.010258075,32.68259881,0.015601175,11.03766533,-0.14105019,-7.207001518,3.768730337,1760,0.974394091
42,0.010310335,0.01025677,32.67297713,0.015604,11.0375515,-0.140777894,-7.115765381,3.730871702,1759,0.974474273
43,0.010305401,0.010258857,32.6627654,0.015608745,11.03785383,-0.140540967,-7.117584848,3.72812327,1758,0.974344455
44,0.010299804,0.010259237,32.65338431,0.015612812,11.03782267,-0.140372922,-7.114444457,3.731375049,1757,0.974344909
45,0.010296177,0.010259592,32.6468881,0.015616385,11.037867,-0.14061688,-7.12016042,3.730047686,1756,0.974526091
46,0.01029048,0.010256944,32.65004018,0.01561709,11.037974,-0.140853776,-7.108515068,3.72488777,1755,0.974218636
47,0.010286841,0.010255709,32.65660218,0.015617119,11.03799,-0.140930193,-7.113591142,3.737794377,1754,0.974423364
48,0.010285964,0.010256619,32.67409012,0.015613534,11.037836,-0.140412555,-7.11458978,3.73886175,1753,0.974580727
49,0.010286294,0.010257831,32.69956447,0.015610433,11.03784383,-0.140874996,-7.103452841,3.730462834,1752,0.974594
50,0.0102879,0.010260447,32.72176056,0.015606439,11.037982,-0.140995283,-7.079778466,3.718714663,1751,0.974677
51,0.010289536,0.010261673,32.74636156,0.015601463,11.03792117,-0.141446559,-6.699583144,3.609712977,1750,0.974545909
52,0.010284665,0.01025583,32.7739341,0.015596126,11.03784733,-0.141866157,-6.701957576,3.602636133,1749,0.974516727
53,0.010283943,0.010254218,32.80226904,0.015589478,11.03747133,-0.142328625,-6.70137214,3.602415746,1748,0.974494727
54,0.010282413,0.010252217,32.83061071,0.015583309,11.03745133,-0.142724365,-6.697131347,3.594198617,1747,0.973357091
55,0.010280514,0.010251254,32.8551894,0.015577944,11.037102,-0.14266717,-6.687986132,3.59261652,1746,0.974507636
56,0.010280288,0.010253532,32.87418825,0.015573497,11.03710017,-0.142887799,-6.695202514,3.596084326,1745,0.974487909
57,0.010279174,0.0102562,32.89416011,0.015570697,11.03703133,-0.142802622,-6.699153553,3.596701355,1744,0.974346091
58,0.010276903,0.010257872,32.90763368,0.015570308,11.03720783,-0.143122557,-6.694553866,3.59375612,1743,0.974296091
59,0.010275293,0.0102619,32.91280844,0.015569342,11.03716383,-0.142951786,-6.697855348,3.591705999,1742,0.974350091
60,0.01027182,0.010263934,32.91265151,0.01557022,11.03740267,-0.143198408,-6.696111522,3.589038418,1741,0.974338091
61,0.010268287,0.010265763,32.9088497,0.01557219,11.037348,-0.143022384,-6.689795026,3.585035791,1740,0.974341091
62,0.010270029,0.010275023,32.90119797,0.015573694,11.037393,-0.142780407,-6.688103699,3.589903912,1739,0.974345727
63,0.010265866,0.010277029,32.89053879,0.015577241,11.037555,-0.14262853,-6.688823497,3.595867357,1738,0.974364091
64,0.01026302,0.010281538,32.87511416,0.015580481,11.03758833,-0.142272777,-6.689435558,3.600425748,1737,0.974285909
65,0.010259712,0.010286424,32.85648463,0.015584885,11.03805583,-0.142288476,-6.68670422,3.59433299,1736,0.974258273
66,0.010255725,0.01028994,32.83279796,0.015590367,11.03839617,-0.141913719,-6.681152933,3.587173094,1735,0.974094364
67,0.010250887,0.01029204,32.80621634,0.015596291,11.03851817,-0.141847149,-6.671191448,3.580340514,1734,0.974262
68,0.010246114,0.010295164,32.77618811,0.015602425,11.04016267,-0.141585455,-6.672768785,3.577629798,1733,0.974081182
69,0.010241872,0.010297986,32.75297332,0.015610491,11.04020333,-0.14152409,-6.672316924,3.57592028,1732,0.973968182
70,0.01023831,0.010301685,32.73332668,0.015615928,11.0398675,-0.141169981,-6.665280176,3.571158974,1731,0.974033182
71,0.010234371,0.01030506,32.71847509,0.01562253,11.040044,-0.141258456,-6.66330462,3.569081403,1730,0.973956818
72,0.010229946,0.010306992,32.70644074,0.015630221,11.04006383,-0.14113409,-6.657733805,3.565038474,1729,0.974055545
73,0.010224517,0.010307273,32.69362918,0.01563494,11.04006117,-0.140430759,-6.650628989,3.542693584,1728,0.974028545
74,0.010217867,0.010304403,32.69874135,0.01563962,11.04002133,-0.14033798,-6.669613306,3.536362936,1727,0.973878545
75,0.010211957,0.01030285,32.71521005,0.015636691,11.039789,-0.139899249,-6.665688857,3.534762338,1726,0.974017273
76,0.010208724,0.010305336,32.71328338,0.015641237,11.039717,-0.140643682,-6.662743446,3.532349404,1725,0.973832273
77,0.010206958,0.010309953,32.70996936,0.015642964,11.03990467,-0.140673155,-6.660561247,3.543545151,1724,0.973792
78,0.010206525,0.010313803,32.71848183,0.015644352,11.03826217,-0.140958742,-6.656281441,3.541460912,1723,0.973986091
79,0.010205321,0.010315762,32.72835497,0.015641194,11.0384815,-0.140923922,-6.65299669,3.538590671,1722,0.9739
80,0.010203063,0.010315705,32.7383129,0.015639369,11.03860983,-0.140757855,-6.81369698,3.580801309,1721,0.974008818
81,0.010200467,0.010315836,32.74806201,0.015636599,11.038762,-0.140484278,-6.810480715,3.577409058,1720,0.973956
82,0.010198725,0.010317922,32.75406164,0.015634391,11.0388045,-0.139682477,-6.819284932,3.577646555,1719,0.973941636
83,0.010202167,0.010326409,32.76392602,0.015632806,11.03889583,-0.140112942,-6.82083061,3.588182946,1718,0.974047
84,0.010207467,0.010336686,32.77267888,0.015629089,11.04056217,-0.140335814,-6.805620621,3.60174463,1717,0.973981636
85,0.010212936,0.010343755,32.77785957,0.015629462,11.04029217,-0.140681677,-6.807873543,3.603697652,1716,0.974074727
86,0.010217305,0.010347716,32.81400953,0.015621569,11.04048567,-0.140313039,-6.809779105,3.605758995,1715,0.974082818
87,0.010219302,0.010348814,32.85331097,0.015614286,11.0404415,-0.140432943,-6.808916776,3.593686732,1714,0.974054545
88,0.010219482,0.010350302,32.88199328,0.015606705,11.04040733,-0.14061499,-6.815554128,3.59561931,1713,0.973958
89,0.010217547,0.010351504,32.89985032,0.015603205,11.040204,-0.140666078,-6.816256261,3.595037328,1712,0.973877
90,0.010215956,0.010355118,32.90533705,0.015603366,11.04011567,-0.140917361,-6.660664663,3.551694994,1711,0.973879545
91,0.010215422,0.01035979,32.90534666,0.015604132,11.04005233,-0.141051635,-6.662337297,3.551301947,1710,0.973721636
92,0.010214736,0.010364773,32.90448053,0.015602851,11.03994733,-0.141998355,-6.651003414,3.550514948,1709,0.973740909
93,0.01020912,0.010364105,32.90412065,0.015603584,11.03990417,-0.142384357,-6.648249611,3.547238468,1708,0.973735
94,0.010204055,0.010365752,32.88577345,0.015608053,11.03824833,-0.143531699,-6.647146368,3.527816049,1707,0.973622818
95,0.01019751,0.01036831,32.86585475,0.015613735,11.038566,-0.143241363,-6.647809253,3.523690049,1706,0.973622273
96,0.010190398,0.010371336,32.83293143,0.015622263,11.03827383,-0.142977252,-6.642623503,3.517408161,1705,0.973733455
97,0.010185516,0.010376314,32.79891034,0.01563151,11.03828417,-0.142836302,-6.641466845,3.513621396,1704,0.973647545
98,0.010180827,0.010379983,32.77163661,0.01563901,11.03834217,-0.142229524,-6.63504767,3.509648357,1703,0.973667545
99,0.010176708,0.010383191,32.74955526,0.015645258,11.03866833,-0.141302681,-6.62989553,3.505880715,1702,0.973572
100,0.010174607,0.010387696,32.74002441,0.015649342,11.03865917,-0.141066149,-6.62071871,3.50200379,1701,0.973750091
101,0.010169537,0.01038841,32.72510611,0.015651901,11.038581,-0.141289074,-6.615157593,3.499601916,1700,0.973598091
102,0.01016477,0.010388514,32.71103003,0.015657366,11.03867517,-0.141162085,-6.610221448,3.4936726,1699,0.973598636
103,0.010164373,0.010394097,32.70092305,0.015661982,11.03900917,-0.140925424,-6.60815266,3.491335076,1698,0.973582182
104,0.010161168,0.010395195,32.69787449,0.015662622,11.0390605,-0.139909312,-6.606361187,3.491051987,1697,0.973546545
105,0.010160264,0.01039845,32.70081138,0.015664979,11.038986,-0.139965499,-6.612718282,3.489017763,1696,0.973542727
106,0.010160131,0.010401451,32.71155495,0.015664362,11.03901,-0.139791131,-6.61161672,3.488670413,1695,0.973336364
107,0.01016036,0.010403339,32.72827724,0.015663703,11.039138,-0.139710672,-6.614710815,3.510946848,1694,0.973401727
108,0.010161832,0.010405407,32.74783025,0.015660917,11.03893617,-0.140082171,-6.618428147,3.517613985,1693,0.973607909
109,0.010165384,0.010409785,32.7728167,0.01565827,11.038694,-0.141833258,-6.614904686,3.518485192,1692,0.973615636
110,0.010166552,0.010411085,32.80198795,0.01565418,11.03880467,-0.141614974,-6.61679042,3.519502961,1691,0.973381636
111,0.010171998,0.01041638,32.84182807,0.015649198,11.0385185,-0.141429221,-6.617612331,3.521089546,1690,0.973605455
112,0.010177922,0.010421988,32.88513593,0.015643159,11.03822267,-0.141824283,-6.624758102,3.528079917,1689,0.973714455
113,0.010182176,0.010424514,32.92344296,0.015636491,11.0377795,-0.142030233,-6.623697569,3.530441479,1688,0.973831545
114,0.010188867,0.010429998,32.96444298,0.015630107,11.03761567,-0.142248307,-6.60433082,3.517091309,1687,0.973621455
115,0.010193501,0.010431853,33.00104082,0.015623612,11.03753933,-0.142171317,-6.597247511,3.521007196,1686,0.973725727
116,0.010198118,0.010433922,33.04153131,0.015614961,11.03712767,-0.142171398,-6.603283851,3.529367156,1685,0.973842
117,0.010201767,0.010435924,33.08197071,0.015605572,11.03693017,-0.142468961,-6.603256361,3.511437609,1684,0.973662818
118,0.010204232,0.010438371,33.12074944,0.015599702,11.03737317,-0.143415544,-6.605151518,3.50673407,1683,0.973703818
119,0.010206376,0.010440551,33.1550248,0.015592092,11.037525,-0.142757518,-6.606919529,3.50807579,1682,0.973697727
120,0.010207922,0.010442436,33.18494617,0.015585581,11.03754967,-0.143243704,-6.609298039,3.509874804,1681,0.973640909
121,0.010207875,0.010443599,33.20989307,0.015581232,11.03876933,-0.143114126,-6.602323459,3.508647794,1680,0.973529909
122,0.010206556,0.010444153,33.23196697,0.015577543,11.03880367,-0.143112436,-6.596256853,3.503706766,1679,0.973557909
123,0.010204146,0.010444788,33.2520053,0.015574857,11.03872367,-0.143127785,-6.597050032,3.502002508,1678,0.973481727
124,0.01020019,0.010444799,33.26389791,0.015575112,11.0386815,-0.143009801,-6.610094758,3.514569359,1677,0.973362455
125,0.010196745,0.010446441,33.26649299,0.015573713,11.0388685,-0.143382028,-6.611402553,3.511601368,1676,0.973382818
126,0.010190258,0.010446162,33.25578883,0.015576759,11.03916033,-0.143522853,-6.609402744,3.502746123,1675,0.973160273
127,0.010183149,0.010447201,33.23420493,0.015582789,11.0391205,-0.143353237,-6.606053872,3.497577426,1674,0.973227545
128,0.010177097,0.010450247,33.20071089,0.015588847,11.03884933,-0.142133789,-6.600906954,3.491609836,1673,0.973244818
129,0.010170745,0.010453481,33.16480673,0.015597078,11.03873533,-0.141723414,-6.597545626,3.486310143,1672,0.973126636
130,0.010166382,0.010459097,33.12728931,0.015605631,11.0386635,-0.142552686,-6.590573494,3.480100784,1671,0.973190273
131,0.010161211,0.010463925,33.09141141,0.015613,11.037807,-0.142511946,-6.59598904,3.476948553,1670,0.973179545
132,0.010156696,0.010469531,33.05143111,0.015620099,11.03816583,-0.142232002,-6.598758427,3.473473249,1669,0.973169273
133,0.010151012,0.010472364,33.01160126,0.015627351,11.03838567,-0.141943052,-6.597100946,3.47032372,1668,0.97311
134,0.010146681,0.010476826,32.97699343,0.015632471,11.03856217,-0.141498248,-6.594857455,3.466027795,1667,0.973076909
135,0.010143337,0.010482305,32.9497526,0.015639071,11.038342,-0.141045834,-6.593564831,3.463314068,1666,0.973120818
136,0.010142109,0.010489115,32.92043666,0.015645193,11.0384975,-0.141024878,-6.589509378,3.460893288,1665,0.973076091
137,0.010141656,0.010497039,32.89815405,0.01564921,11.04013667,-0.140623756,-6.589057311,3.458229423,1664,0.973014545
138,0.010140007,0.010501693,32.88893664,0.015654711,11.04026433,-0.140738206,-6.587004382,3.456849187,1663,0.972984364
139,0.010141771,0.01050786,32.89000438,0.015656317,11.040341,-0.140730624,-6.591043935,3.458133791,1662,0.972985545
140,0.01014396,0.010512232,32.90269055,0.015654683,11.04065,-0.139487683,-6.590898535,3.459848287,1661,0.972950545
141,0.010146441,0.010514062,32.92538421,0.015650719,11.04063417,-0.139588914,-6.573835463,3.454525709,1660,0.973088
142,0.01014804,0.010514254,32.95698837,0.015645395,11.04050183,-0.137260399,-6.573066473,3.454929145,1659,0.971974818
143,0.010152694,0.010519053,32.99386147,0.015638837,11.0406105,-0.137063844,-6.581420274,3.45860361,1658,0.973110727
144,0.010154496,0.010519711,33.02739349,0.015633314,11.0408515,-0.137449457,-6.583600769,3.46110131,1657,0.973153182
145,0.010156041,0.010519216,33.05976856,0.015628194,11.04102967,-0.138013534,-6.574371367,3.460468319,1656,0.973163545
146,0.010158543,0.010519437,33.1059087,0.015620432,11.040747,-0.138146858,-6.576759755,3.463497887,1655,0.973178909
147,0.010161547,0.010518011,33.15241274,0.015612004,11.0391595,-0.138489772,-6.574366931,3.464942241,1654,0.973039545
148,0.01016489,0.010518959,33.19519183,0.015601258,11.03886633,-0.139355095,-6.568877561,3.466309854,1653,0.973198273
149,0.010164106,0.010517706,33.22419165,0.015593893,11.04020467,-0.139559819,-6.560960079,3.46443334,1652,0.973049909
150,0.010162115,0.010517769,33.23691665,0.015591149,11.03990583,-0.139796717,-6.559913634,3.464152256,1651,0.973127364
151,0.010160109,0.010520199,33.23651637,0.015591438,11.03995283,-0.140081229,-6.578175528,3.46976572,1650,0.973021545
152,0.010158734,0.010523497,33.23372029,0.015592909,11.04009,-0.142537329,-6.575935831,3.469675658,1649,0.972977909
153,0.010155834,0.01052458,33.224862,0.015594751,11.039882,-0.142957708,-6.56725795,3.465012399,1648,0.972876909
154,0.010152809,0.0105264,33.21367293,0.015597063,11.039362,-0.142945388,-6.849823589,3.542786717,1647,0.972924364
155,0.010149287,0.010529407,33.1955772,0.015599157,11.039159,-0.142667074,-6.854405821,3.541431588,1646,0.972935182
156,0.010145131,0.010535544,33.16609006,0.015604571,11.04115867,-0.142502999,-6.855199257,3.537214736,1645,0.972889636
157,0.010140434,0.010540668,33.1311607,0.015611448,11.04109267,-0.142439166,-6.851022285,3.532952433,1644,0.972869273
158,0.010135769,0.010544576,33.09373456,0.015620392,11.04124183,-0.14164532,-6.852671452,3.529421857,1643,0.972743455
159,0.01013167,0.010549323,33.05940099,0.015629023,11.039806,-0.141946962,-6.855473027,3.526245986,1642,0.972708455
160,0.010126073,0.010550915,33.02768744,0.015635848,11.04154317,-0.141937279,-6.854387238,3.529322512,1641,0.971650364
161,0.010121241,0.010554606,33.00133458,0.015642838,11.04155267,-0.14116279,-6.846741066,3.524106991,1640,0.972575727
162,0.010115586,0.01055697,32.97149155,0.015649856,11.04140583,-0.140794252,-6.840633067,3.518647815,1639,0.972714273
163,0.010110893,0.010561328,32.941318,0.015656846,11.0415605,-0.140697611,-6.835207655,3.513188013,1638,0.971500545
164,0.010106701,0.010565512,32.91224703,0.015663765,11.0418455,-0.140648568,-6.547740978,3.428718917,1637,0.972605545
165,0.010102898,0.01056915,32.89354998,0.015669928,11.04159483,-0.140087095,-6.544627805,3.404826574,1636,0.972582727
166,0.010098944,0.010567922,32.88527978,0.015673185,11.041251,-0.139781667,-6.541503038,3.401959582,1635,0.972455
167,0.010097322,0.010569003,32.89280835,0.015674729,11.04133167,-0.139523097,-6.544697389,3.401535839,1634,0.972608364
168,0.010097603,0.010569508,32.90943473,0.01567297,11.0412505,-0.139687932,-6.542467752,3.40071528,1633,0.972629909
169,0.010098171,0.010569373,32.93478462,0.015667841,11.041289,-0.139586016,-6.539535816,3.400808118,1632,0.972685727
170,0.010100711,0.010570896,32.97030219,0.015661321,11.03925617,-0.139944382,-6.53762131,3.394129599,1631,0.972642545
