Cycle,omega,b,TemperatureAvg,InternalResistance,ChargeTime,dQdV_max,dQdV_min,dQdV_var,RUL,SOH
1,0.010151201,0.0102843,35.58764121,0.01546871,10.04402,-0.138824811,-6.54744855,3.528571017,1157,0.963846091
2,0.01016581,0.010285395,35.60025807,0.015453776,10.04428,-0.138458431,-6.588061995,3.536605727,1156,0.965031818
3,0.010164691,0.010266403,35.59733511,0.015433871,10.04422,-0.138686829,-6.60263088,3.550194783,1155,0.965523182
4,0.010162194,0.010249974,35.60050268,0.015417631,10.04443792,-0.13924844,-6.581222633,3.54849548,1154,0.965959364
5,0.010158174,0.010234097,35.59247942,0.015403474,10.044259,-0.139488146,-6.605043622,3.557122359,1153,0.966458455
6,0.010155352,0.010223192,35.58113805,0.015399495,10.04415722,-0.139641647,-6.612493033,3.557354944,1152,0.966795273
7,0.01014925,0.010208053,35.57612458,0.01538862,10.04407405,-0.139607068,-6.625885836,3.559529436,1151,0.966993636
8,0.010144264,0.010196402,35.57405696,0.0153819,10.04394333,-0.139740571,-6.634683858,3.557740438,1150,0.967050818
9,0.010139114,0.010184439,35.57276932,0.015374601,10.04392407,-0.139881006,-6.620843312,3.554068455,1149,0.967215727
10,0.010135112,0.010175123,35.57170046,0.015367978,10.0438405,-0.140162334,-6.611347147,3.550233965,1148,0.967301909
11,0.010128041,0.010153618,35.56888017,0.015349756,10.0438135,-0.140450029,-6.620534063,3.55216745,1147,0.967347545
12,0.010118971,0.010133352,35.56136364,0.01533748,10.0437005,-0.140657542,-6.605094858,3.548226192,1146,0.967309455
13,0.010108203,0.010115938,35.56008375,0.015326972,10.04364483,-0.140981112,-6.614180089,3.545148921,1145,0.967314091
14,0.010098476,0.010101461,35.54702835,0.015321602,10.04357683,-0.141012078,-6.619116787,3.541467411,1144,0.967317455
15,0.010090522,0.010090347,35.54481844,0.015315856,10.04361933,-0.141099856,-6.621874464,3.537495225,1143,0.967448364
16,0.010082043,0.01007703,35.54669934,0.015303284,10.04366217,-0.141497776,-6.619406883,3.534008089,1142,0.967465818
17,0.010077496,0.01007084,35.55382461,0.015298942,10.04373233,-0.141792712,-6.596339223,3.52547273,1141,0.967448
18,0.010072927,0.010064186,35.5626242,0.015292509,10.04388933,-0.142014718,-6.57996128,3.521784301,1140,0.967382091
19,0.010068924,0.0100596,35.57270426,0.015288727,10.04391733,-0.142272843,-6.585662265,3.524992166,1139,0.967497545
20,0.010062587,0.010052398,35.58144601,0.015283838,10.0440565,-0.142213422,-6.590809645,3.527607507,1138,0.967414273
21,0.01006057,0.010050783,35.5897877,0.015282921,10.0440715,-0.142272753,-6.577458959,3.524344285,1137,0.967525545
22,0.010054452,0.01004386,35.60217261,0.015279008,10.04418483,-0.142440135,-6.596120717,3.526171254,1136,0.967482364
23,0.01005484,0.01004506,35.60962776,0.015277656,10.04428167,-0.142349131,-6.570230216,3.520891015,1135,0.967468818
24,0.010053594,0.0100451,35.63111633,0.015270769,10.04428633,-0.142598507,-6.555922658,3.517391413,1134,0.967438909
25,0.010048693,0.010041003,35.64774877,0.015268227,10.04429433,-0.142742208,-6.542544098,3.511779204,1133,0.967374636
26,0.010044434,0.010041607,35.65869402,0.015270331,10.04432933,-0.142588582,-6.547759445,3.512295353,1132,0.967317273
27,0.010035952,0.010037242,35.65499957,0.015271753,10.044378,-0.142569448,-6.551336292,3.507304439,1131,0.967268182
28,0.010029559,0.01003692,35.64242892,0.015274812,10.044382,-0.142393368,-6.541500551,3.503127327,1130,0.967272545
29,0.010024134,0.010037575,35.63024476,0.015274518,10.04437983,-0.142132047,-6.535244564,3.49341343,1129,0.967427091
30,0.010021696,0.010041163,35.62438144,0.015277325,10.04436733,-0.1422337,-6.51987598,3.488084676,1128,0.967227727
31,0.010017184,0.01004191,35.62524597,0.015278616,10.0444425,-0.142191843,-6.516116191,3.482036988,1127,0.967353455
32,0.01001491,0.010045395,35.6263624,0.015276729,10.04435683,-0.142216082,-6.505757695,3.479536675,1126,0.967272636
33,0.010009949,0.010044048,35.63205175,0.015278732,10.044246,-0.14238665,-6.523780541,3.484229576,1125,0.967293545
34,0.010006097,0.010043272,35.63794283,0.015279632,10.04417117,-0.142328804,-6.532821693,3.484821716,1124,0.967382818
35,0.010006373,0.010048164,35.64485326,0.015279323,10.04410717,-0.142303997,-6.52592218,3.480831606,1123,0.967328091
36,0.010005895,0.010050424,35.65798582,0.015279205,10.04406833,-0.142226924,-6.507301632,3.476419551,1122,0.967319636
37,0.010008429,0.010056874,35.67752425,0.015276354,10.0440485,-0.142379555,-6.506253528,3.478724907,1121,0.967159182
38,0.010008055,0.010058881,35.70139851,0.015277108,10.04399117,-0.142717532,-6.502875554,3.477648717,1120,0.967230273
39,0.010006609,0.010060391,35.72146312,0.015276841,10.04398767,-0.143021893,-6.497183892,3.476602378,1119,0.967233727
40,0.010002552,0.010060343,35.73375109,0.015276842,10.04390383,-0.142875277,-6.508652171,3.475736163,1118,0.967043455
41,0.009998636,0.010062361,35.73495839,0.015278743,10.04377467,-0.142985437,-6.525218163,3.477954599,1117,0.967045545
42,0.009995554,0.010066698,35.72979649,0.015281917,10.04372683,-0.143116975,-6.531234526,3.472660274,1116,0.967053727
43,0.009991808,0.010070402,35.72733709,0.015280081,10.04373783,-0.142923801,-6.515642822,3.461855284,1115,0.967073364
44,0.009987452,0.01007465,35.7200275,0.015286868,10.04374567,-0.142983323,-6.512815033,3.45756789,1114,0.966992909
45,0.009982368,0.010077175,35.71201391,0.015291375,10.04369883,-0.143053739,-6.501938419,3.452357137,1113,0.966920182
46,0.009977562,0.010080207,35.70177536,0.015296086,10.041996,-0.143137668,-6.49817659,3.446997106,1112,0.966982545
47,0.009972729,0.010083096,35.69403092,0.015298023,10.04196417,-0.14303064,-6.502446984,3.44498144,1111,0.966978182
48,0.009969349,0.010086896,35.68960391,0.015295206,10.041877,-0.142766079,-6.533586044,3.448798261,1110,0.966861364
49,0.009967701,0.010090995,35.69251594,0.015297306,10.04189567,-0.142684734,-6.54300295,3.449504252,1109,0.966960909
50,0.009967326,0.010096178,35.70160431,0.015299449,10.041946,-0.142950653,-6.547535628,3.44701617,1108,0.966927182
51,0.009965393,0.010097831,35.71944569,0.015299916,10.04194833,-0.142847584,-6.532800902,3.442882213,1107,0.966832636
52,0.009964327,0.010099237,35.74397361,0.015297932,10.04202717,-0.142775562,-6.517338232,3.444266252,1106,0.966663273
53,0.009964755,0.010102437,35.76355958,0.015298422,10.04208767,-0.142862163,-6.538819403,3.449435236,1105,0.966791091
54,0.009965171,0.010104482,35.79025918,0.015289521,10.04218217,-0.142723878,-6.56459611,3.454935218,1104,0.966762182
55,0.009964381,0.010105613,35.81556285,0.015285339,10.04227067,-0.142613893,-6.566267277,3.457733881,1103,0.966822273
56,0.009964758,0.01010806,35.83999397,0.015278934,10.04401017,-0.142746501,-6.572603771,3.458201755,1102,0.966840182
57,0.009965796,0.010110719,35.86288619,0.015276949,10.044002,-0.142913383,-6.568563571,3.457190758,1101,0.966685
58,0.009966054,0.010113593,35.89078521,0.015270915,10.04408917,-0.143021618,-6.542882297,3.451385034,1100,0.966599
59,0.009965992,0.010117743,35.91117104,0.01526626,10.04404617,-0.143059088,-6.534178345,3.446339742,1099,0.966723091
60,0.0099646,0.010119822,35.92983359,0.015260078,10.04406833,-0.142952174,-6.516595914,3.444233536,1098,0.966658727
61,0.009964819,0.01012482,35.94660679,0.015257387,10.04412367,-0.142964235,-6.513469243,3.443783028,1097,0.966674455
62,0.009962307,0.010127389,35.96099849,0.015257855,10.044142,-0.143630036,-6.499706271,3.43422127,1096,0.966587
63,0.009957759,0.010127744,35.9673926,0.015257771,10.044033,-0.14379383,-6.48734878,3.430439079,1095,0.966622273
64,0.009954494,0.010130262,35.96583472,0.015261501,10.04398283,-0.14383336,-6.46363116,3.424012359,1094,0.966510636
65,0.009952175,0.010134202,35.96502908,0.015263548,10.04401967,-0.144078123,-6.484366495,3.424940343,1093,0.966482909
66,0.009947727,0.010135599,35.96425692,0.01526619,10.04398633,-0.1438999,-6.480345724,3.424948717,1092,0.966431455
67,0.009942313,0.010136529,35.96509783,0.015270764,10.04400317,-0.144412744,-6.476453028,3.422232685,1091,0.966382909
68,0.009937102,0.010137966,35.95542336,0.015279251,10.04403933,-0.144155413,-6.486973859,3.422771034,1090,0.966337182
69,0.009931629,0.010140526,35.94496831,0.015283139,10.044076,-0.1439315,-6.482928513,3.419951527,1089,0.966289909
70,0.009925297,0.010141933,35.92911562,0.015288023,10.04396533,-0.14386398,-6.491484785,3.413747348,1088,0.966207455
71,0.009918702,0.010142814,35.91233763,0.015290024,10.043951,-0.143870869,-6.496957632,3.406955254,1087,0.966190273
72,0.009914396,0.010146819,35.89062767,0.015294181,10.04390867,-0.14317568,-6.507969187,3.408128774,1086,0.966211636
73,0.009910479,0.010152326,35.87198424,0.015299273,10.04394467,-0.14285613,-6.499594396,3.400635149,1085,0.966242364
74,0.009905532,0.010155961,35.85378289,0.015307959,10.04384983,-0.142767792,-6.497169531,3.396360245,1084,0.966085
75,0.009899684,0.010158465,35.83644947,0.015308455,10.04377517,-0.14239755,-6.464958999,3.384632574,1083,0.966093364
76,0.00989628,0.010163925,35.82287744,0.015314695,10.04372533,-0.142473896,-6.453175536,3.375893225,1082,0.966033727
77,0.009894947,0.010171235,35.80951947,0.015318509,10.04363967,-0.141535037,-6.445769931,3.373490121,1081,0.966115091
78,0.009894189,0.010179275,35.79651641,0.015321592,10.04350433,-0.141716512,-6.433020787,3.372065175,1080,0.965993273
79,0.009894399,0.010185712,35.79650598,0.015326405,10.0434575,-0.141720933,-6.442551076,3.374487103,1079,0.966030909
80,0.009894104,0.010189772,35.818778,0.01532981,10.04341983,-0.141777559,-6.437700414,3.371746656,1078,0.966100818
81,0.009892542,0.010195529,35.81915629,0.015330048,10.0433635,-0.14169422,-6.41535406,3.368870817,1077,0.965845818
82,0.009887637,0.01019662,35.8177736,0.015331744,10.04330367,-0.141629887,-6.40980729,3.363592353,1076,0.965750182
83,0.009882577,0.010195889,35.82201726,0.01533585,10.043354,-0.141657433,-6.398049984,3.361524746,1075,0.965710727
84,0.009881426,0.010200292,35.83255628,0.015333257,10.04179217,-0.142252524,-6.392089837,3.361129155,1074,0.965793273
85,0.009882404,0.01020598,35.84189681,0.015336867,10.04186233,-0.142300346,-6.40842139,3.363874412,1073,0.965787909
86,0.009882378,0.01021054,35.85319312,0.015334357,10.041871,-0.142103543,-6.415609612,3.365299655,1072,0.965727636
87,0.009880279,0.01021311,35.86233627,0.015334669,10.04187,-0.142402838,-6.422200908,3.362124373,1071,0.965752455
88,0.009876446,0.010213362,35.87486523,0.015334347,10.04193983,-0.14238404,-6.410804296,3.353935098,1070,0.965608727
89,0.009871564,0.010213635,35.87553282,0.015333363,10.04191217,-0.142376632,-6.399670603,3.347924322,1069,0.965573545
90,0.00987123,0.010220636,35.87126307,0.01533382,10.0420405,-0.142501406,-6.403318768,3.349501959,1068,0.965537909
91,0.009872668,0.010223342,35.88705414,0.015332177,10.042086,-0.14272317,-6.420248901,3.352137619,1067,0.965619909
92,0.009875953,0.010227706,35.92212259,0.015329257,10.04212733,-0.142814849,-6.414885808,3.355247205,1066,0.965539545
93,0.009878654,0.010231246,35.95500894,0.015323235,10.04214767,-0.143123751,-6.407149632,3.353559528,1065,0.965572091
94,0.009878588,0.010233604,35.98252171,0.015319193,10.04380533,-0.14251668,-6.401302638,3.348713684,1064,0.965576182
95,0.00987541,0.010234411,36.00274869,0.015316492,10.0438135,-0.142677607,-6.39689267,3.35307987,1063,0.965413273
96,0.009871371,0.010235077,36.01055751,0.015318904,10.04374217,-0.142721634,-6.381245702,3.34812312,1062,0.965325818
97,0.009866315,0.010234393,36.01540186,0.015318771,10.0438145,-0.142528272,-6.38341393,3.347450345,1061,0.965265
98,0.00986349,0.010237309,36.0175688,0.015319488,10.04384883,-0.142604041,-6.39431627,3.346986482,1060,0.965127
99,0.009859303,0.01023881,36.02260168,0.015322869,10.043881,-0.142675867,-6.395227843,3.345044773,1059,0.965078636
100,0.009854472,0.01024091,36.01329975,0.015322598,10.043838,-0.142276177,-6.38755304,3.341103305,1058,0.965044818
101,0.009847451,0.010242767,36.00461022,0.015330129,10.043899,-0.14196494,-6.387152872,3.34110136,1057,0.965095545
102,0.009842024,0.010247464,35.98047072,0.015336624,10.04388917,-0.141881172,-6.396191055,3.337888786,1056,0.964997364
103,0.009836413,0.010253366,35.95511737,0.015340884,10.04388117,-0.141730194,-6.398228002,3.335804082,1055,0.964958455
104,0.00983137,0.010257975,35.93196235,0.015347769,10.04387467,-0.141770873,-6.398624892,3.332489425,1054,0.964863364
105,0.009827311,0.010262516,35.9163567,0.015354237,10.04380867,-0.141487814,-6.385358004,3.321619852,1053,0.964848
106,0.009823737,0.010266806,35.9079426,0.015356881,10.04390067,-0.141483796,-6.39561887,3.319222992,1052,0.964886909
107,0.009822308,0.010273019,35.9045441,0.015361294,10.04386833,-0.14145991,-6.375132252,3.314721066,1051,0.964800455
108,0.009818834,0.010275613,35.90517065,0.015363086,10.04388917,-0.141336859,-6.383599203,3.314049573,1050,0.964791636
109,0.009816632,0.010280728,35.90203303,0.015365999,10.04392083,-0.141311175,-6.390928067,3.313312643,1049,0.964801273
110,0.009814264,0.010284714,35.89580836,0.015374045,10.04395967,-0.141549917,-6.380105372,3.309828481,1048,0.964721091
111,0.009811498,0.010287736,35.89052159,0.015375781,10.04399417,-0.141593417,-6.369153972,3.304048755,1047,0.964641182
112,0.009809681,0.010291821,35.89267173,0.015378544,10.04404533,-0.1416241,-6.369479208,3.304911834,1046,0.964683909
113,0.009808663,0.010295679,35.90638104,0.015379251,10.0440905,-0.141592141,-6.38067667,3.303223406,1045,0.964671091
114,0.009807267,0.01029875,35.92201569,0.015381112,10.04407817,-0.141470037,-6.39295358,3.305502928,1044,0.964673455
115,0.009807766,0.010302768,35.94006237,0.015381038,10.04418167,-0.141642729,-6.404775373,3.309453081,1043,0.964663182
116,0.009809469,0.010306611,35.9675931,0.015376323,10.04420683,-0.141833382,-6.401402568,3.31161333,1042,0.964768455
117,0.009811205,0.010310693,35.99217043,0.015370276,10.044296,-0.141990282,-6.413405713,3.312178824,1041,0.964656273
118,0.009812121,0.010312816,36.02336272,0.015367884,10.04430483,-0.142193167,-6.399756456,3.312141903,1040,0.964532364
119,0.009813957,0.010314498,36.05710599,0.015361332,10.04433967,-0.142267812,-6.391931068,3.311318289,1039,0.964604
120,0.009815509,0.010315392,36.09799935,0.015351367,10.04432817,-0.14211355,-6.402387658,3.318519059,1038,0.964502
121,0.009819495,0.010319796,36.13885708,0.015344265,10.04421733,-0.142339339,-6.401118698,3.318032568,1037,0.964512364
122,0.009821444,0.01032054,36.17478638,0.015333117,10.04428183,-0.142310011,-6.410850131,3.321427113,1036,0.964481545
123,0.009824663,0.010322859,36.20473968,0.015326956,10.04428933,-0.142498247,-6.405766573,3.325329056,1035,0.964466364
124,0.009828295,0.010325064,36.23552979,0.015316757,10.04430067,-0.142522158,-6.39642252,3.329058486,1034,0.964472727
125,0.009830949,0.010327366,36.27141835,0.015307308,10.04435217,-0.14301805,-6.401005332,3.330852089,1033,0.964428
126,0.009831696,0.010328226,36.30189429,0.015301552,10.04436117,-0.143199905,-6.405307624,3.332334506,1032,0.964367455
127,0.009831955,0.010328766,36.33672465,0.015297187,10.04517317,-0.143277934,-6.394880451,3.334625436,1031,0.964432727
128,0.009832867,0.010330542,36.3653354,0.01529121,10.04519633,-0.143480702,-6.385848621,3.332084158,1030,0.964301636
129,0.009831874,0.010330159,36.39460473,0.015286723,10.04519767,-0.143485505,-6.393035453,3.334416298,1029,0.964199
130,0.009830883,0.010331843,36.4139229,0.015283662,10.045252,-0.143477928,-6.396720538,3.332757348,1028,0.964226727
131,0.009829286,0.010332921,36.43218462,0.015282312,10.04529733,-0.143335099,-6.404554167,3.334195445,1027,0.964161182
132,0.009827322,0.010335156,36.45284076,0.015283687,10.045225,-0.14330009,-6.38918708,3.326271468,1026,0.964155727
133,0.009825126,0.01033837,36.4673975,0.015285697,10.0451915,-0.143500425,-6.381494797,3.321661848,1025,0.964096909
134,0.009821615,0.010341372,36.46703522,0.015287534,10.04519333,-0.143727308,-6.373629881,3.315430117,1024,0.96414
135,0.009816979,0.01034337,36.45455153,0.015292249,10.0450585,-0.143207843,-6.360425268,3.30685818,1023,0.963667091
136,0.009811343,0.010345406,36.44429104,0.015297782,10.04497033,-0.142973953,-6.355911748,3.302407753,1022,0.963932182
137,0.009806605,0.010349853,36.41565868,0.01530338,10.04401683,-0.142639215,-6.357489596,3.296603182,1021,0.963858455
138,0.009801941,0.010355645,36.38164034,0.015310773,10.04391633,-0.142137335,-6.364103459,3.291934406,1020,0.963786636
139,0.009797268,0.010361556,36.34463489,0.01532025,10.043836,-0.141979567,-6.354165893,3.285302086,1019,0.963736545
140,0.009791705,0.010365712,36.31674916,0.01532818,10.04373167,-0.14195699,-6.348183135,3.27833454,1018,0.963662545
141,0.009787614,0.010372339,36.28595785,0.01533414,10.0437115,-0.141915842,-6.342192975,3.272973259,1017,0.963723
142,0.009782666,0.01037713,36.2510703,0.015339287,10.04367817,-0.14194367,-6.33056489,3.267136953,1016,0.963586273
143,0.00977834,0.01038232,36.21601185,0.015343608,10.04363017,-0.141437259,-6.316569074,3.261920654,1015,0.963552636
144,0.009773611,0.010386564,36.19596774,0.015348507,10.04361983,-0.141757846,-6.335384385,3.25962269,1014,0.963485
145,0.009768603,0.010389613,36.18300718,0.015355136,10.04366333,-0.14162123,-6.324965132,3.256326341,1013,0.963509818
146,0.009766215,0.010395469,36.15609366,0.01535884,10.04368133,-0.141507752,-6.320392524,3.252074808,1012,0.963473182
147,0.009760005,0.010395931,36.14737905,0.015363074,10.04382283,-0.141792034,-6.313213885,3.24567742,1011,0.963403727
148,0.009756636,0.01039927,36.14388825,0.015367249,10.043799,-0.141656848,-6.297936686,3.239320945,1010,0.963276818
149,0.009754495,0.010402511,36.14782149,0.015367941,10.0437985,-0.141599642,-6.307027677,3.241745963,1009,0.963209
150,0.009756042,0.010407787,36.15440801,0.015366188,10.04378267,-0.14235275,-6.304753281,3.238745818,1008,0.963331818
151,0.009755554,0.010407695,36.17415731,0.015362898,10.0438085,-0.142555866,-6.301808137,3.23866997,1007,0.963393
152,0.009758311,0.010410966,36.2010835,0.015359353,10.04376083,-0.142662391,-6.3079324,3.242740827,1006,0.963431455
153,0.009758614,0.010410555,36.23515197,0.015354879,10.04377333,-0.142813363,-6.32320336,3.245282723,1005,0.963373545
154,0.009760294,0.010411493,36.26641769,0.015350925,10.04376467,-0.142520557,-6.297893466,3.2409232,1004,0.963311909
155,0.009763404,0.010415148,36.29121491,0.015343847,10.04379117,-0.143084722,-6.312294954,3.244572984,1003,0.963307636
156,0.009765878,0.010417697,36.33051287,0.015337232,10.0438705,-0.143125304,-6.298616386,3.243984243,1002,0.963259545
157,0.009772158,0.010422766,36.36769688,0.015328702,10.04383567,-0.142932841,-6.302130458,3.248659587,1001,0.963144727
158,0.00977658,0.010425128,36.40614945,0.015318506,10.04390217,-0.143289759,-6.32063778,3.258936754,1000,0.963151273
159,0.009778684,0.010425816,36.43894263,0.015309345,10.0439495,-0.14354974,-6.304226384,3.255101068,999,0.963115727
160,0.009777613,0.010426168,36.46284414,0.015306581,10.04400783,-0.143144604,-6.29745556,3.256606171,998,0.963020182
161,0.00977679,0.010429578,36.47424516,0.015304019,10.0439275,-0.143067554,-6.280077931,3.253530431,997,0.962989636
162,0.00977494,0.010433289,36.47783133,0.015304079,10.0440615,-0.142993181,-6.280904467,3.251930144,996,0.962942818
163,0.009772064,0.010435379,36.47750095,0.01530641,10.04400983,-0.142841411,-6.267927804,3.246615549,995,0.962804273
164,0.009769897,0.010439696,36.47353396,0.015311205,10.04398117,-0.142977191,-6.266280531,3.24792384,994,0.962812182
165,0.009765915,0.010440861,36.4693373,0.015314633,10.0439045,-0.143329958,-6.247846634,3.243021527,993,0.962748818
166,0.009761685,0.0104426,36.45653892,0.015320506,10.04387967,-0.14320726,-6.261088399,3.2422429,992,0.962689545
167,0.009754648,0.010442757,36.43943886,0.015324542,10.0421265,-0.143527805,-6.272071261,3.243264577,991,0.962585818
168,0.009749797,0.010447266,36.4132882,0.015331254,10.04202583,-0.143378504,-6.27296989,3.234979786,990,0.962752455
169,0.009744817,0.010452906,36.38642006,0.015339119,10.04201367,-0.14318609,-6.259293032,3.229660478,989,0.962484636
170,0.009740389,0.010457528,36.36086935,0.015344814,10.0420495,-0.142803493,-6.25461008,3.224562642,988,0.962402636
